# mass/M_sun, probability density
1.000010000000000066e-01 3.347006151289383613e+00
1.146250231933549912e-01 2.846450570990306961e+00
1.292490463867181916e-01 2.463880497207599607e+00
1.438730695800742865e-01 2.164048770852662784e+00
1.584970927734374868e-01 1.923912894296440745e+00
1.731211159667935817e-01 1.727919742616850884e+00
1.877451391601567821e-01 1.565539234381741807e+00
2.023691623535128770e-01 1.429409933090937113e+00
2.169931855468760773e-01 1.314040720881535673e+00
2.316172087402321722e-01 1.215444416919703174e+00
2.462412319335953725e-01 1.130608793066527618e+00
2.608652551269514674e-01 1.057158124639049790e+00
2.754892783203146678e-01 9.932721483624722403e-01
2.901133015136707627e-01 9.375010699452854812e-01
3.047373247070268576e-01 8.886731096413063025e-01
3.193613479003900579e-01 8.458501052323671443e-01
3.339853710937461528e-01 8.082576801344456552e-01
3.486093942871093532e-01 7.752580515650991932e-01
3.632334174804654481e-01 7.463237794041505113e-01
3.778574406738286484e-01 7.210082248163033336e-01
3.924814638671847433e-01 6.989378187222724526e-01
4.071054870605479437e-01 6.797963374523935398e-01
4.217295102539040386e-01 6.633115816976496992e-01
4.363535334472672389e-01 6.492521600316819574e-01
4.509775566406233338e-01 6.374185193943779915e-01
4.656015798339865341e-01 6.276372395410547700e-01
4.802256030273426290e-01 6.197584627746814956e-01
4.948496262206987240e-01 6.136513061431739802e-01
5.094736494140619243e-01 5.857915307642389546e-01
5.240976726074180192e-01 5.489115165139026864e-01
5.387216958007812195e-01 5.152860639004019916e-01
5.533457189941373144e-01 4.845521141637422757e-01
5.679697421875005148e-01 4.563951275132144825e-01
5.825937653808566097e-01 4.305416253241347579e-01
5.972177885742198100e-01 4.067529686317172266e-01
6.118418117675759049e-01 3.848202048320135127e-01
6.264658349609391053e-01 3.645598304335163631e-01
6.410898581542952002e-01 3.458100460345894800e-01
6.557138813476584005e-01 3.284279032518078179e-01
6.703379045410144954e-01 3.122867867688460808e-01
6.849619277343705903e-01 2.972741477820365352e-01
6.995859509277337906e-01 2.832898258246844825e-01
7.142099741210898856e-01 2.702443331006494365e-01
7.288339973144530859e-01 2.580575128214069869e-01
7.434580205078091808e-01 2.466575674696594722e-01
7.580820437011723811e-01 2.359798687566855013e-01
7.727060668945284760e-01 2.259661985049894739e-01
7.873300900878916764e-01 2.165641318058586784e-01
8.019541132812477713e-01 2.077261499362514641e-01
8.165781364746109716e-01 1.994091977205237620e-01
8.312021596679670665e-01 1.915742526135042201e-01
8.458261828613302669e-01 1.841857696916815168e-01
8.604502060546863618e-01 1.772114190143224688e-01
8.750742292480424567e-01 1.706217341420404598e-01
8.896982524414056570e-01 1.643897536581262753e-01
9.043222756347617519e-01 1.584908405218212191e-01
9.189462988281249523e-01 1.529023905342729583e-01
9.335703220214810472e-01 1.476036486488567501e-01
9.481943452148442475e-01 1.425755988001667918e-01
9.628183684082003424e-01 1.378007129039755807e-01
9.774423916015635427e-01 1.332628451029694294e-01
9.920664147949196376e-01 1.289471283312789152e-01
1.006690437988282838e+00 1.248397949093974363e-01
1.021314461181638933e+00 1.209281289308985485e-01
1.035938484375002133e+00 1.172003739645853110e-01
1.050562507568358228e+00 1.136456216904113692e-01
1.065186530761714323e+00 1.102537754823450789e-01
1.079810553955077523e+00 1.070154450088647569e-01
1.094434577148433618e+00 1.039218881333751482e-01
1.109058600341796819e+00 1.009649952600531475e-01
1.123682623535152914e+00 9.813719508518033152e-02
1.138306646728516114e+00 9.543143076173025985e-02
1.152930669921872209e+00 9.284114291183370726e-02
1.167554693115235409e+00 9.036018185366581634e-02
1.182178716308591504e+00 8.798279908667679117e-02
1.196802739501954704e+00 8.570362797157181356e-02
1.211426762695310799e+00 8.351575950790303404e-02
1.226050785888674000e+00 8.141219841698654758e-02
1.240674809082030094e+00 7.938824161072595420e-02
1.255298832275386189e+00 7.743996062540176029e-02
1.269922855468749390e+00 7.556365183685014031e-02
1.284546878662105485e+00 7.375584665894975578e-02
1.299170901855468685e+00 7.201328345930366193e-02
1.313794925048824780e+00 7.033287676794730547e-02
1.328418948242187980e+00 6.871172588612824150e-02
1.343042971435544075e+00 6.714710553152387906e-02
1.357666994628907275e+00 6.563643014718720248e-02
1.372291017822263370e+00 6.417726026831585551e-02
1.386915041015626571e+00 6.276730397111932036e-02
1.401539064208982666e+00 6.140438115196496238e-02
1.416163087402345866e+00 6.008642826194624670e-02
1.430787110595701961e+00 5.881150465227923119e-02
1.445411133789058056e+00 5.757776609104760940e-02
1.460035156982421256e+00 5.638346225390120786e-02
1.474659180175777351e+00 5.522694010384002206e-02
1.489283203369140551e+00 5.410662886353831413e-02
1.503907226562496646e+00 5.302103313288886871e-02
1.518531249755859847e+00 5.196873738397563697e-02
1.533155272949215941e+00 5.094839908892657976e-02
1.547779296142579142e+00 4.995873831565500467e-02
1.562403319335935237e+00 4.899853926702706780e-02
1.577027342529298437e+00 4.806664800940020632e-02
1.591651365722654532e+00 4.716196168143027556e-02
1.606275388916017732e+00 4.628343026540689131e-02
1.620899412109373827e+00 4.543005737564569796e-02
1.635523435302729922e+00 4.460089015241454347e-02
1.650147458496093122e+00 4.379501942327028441e-02
1.664771481689449217e+00 4.301158061520829468e-02
1.679395504882812418e+00 4.224974699191864913e-02
1.694019528076168513e+00 4.150872823513872267e-02
1.708643551269531713e+00 4.078777107827548376e-02
1.723267574462887808e+00 4.008615558500273207e-02
1.737891597656251008e+00 3.940319253835829899e-02
1.752515620849607103e+00 3.873822352984015310e-02
1.767139644042970303e+00 3.809061916378496393e-02
1.781763667236326398e+00 3.745977621028043214e-02
1.796387690429689599e+00 3.684511734234392072e-02
1.811011713623045694e+00 3.624609029887430889e-02
1.825635736816401788e+00 3.566216527497780009e-02
1.840259760009764989e+00 3.509283446537560247e-02
1.854883783203121084e+00 3.453761157612526139e-02
1.869507806396484284e+00 3.399603008914065666e-02
1.884131829589840379e+00 3.346764236736857190e-02
1.898755852783203579e+00 3.295201883761735701e-02
1.913379875976559674e+00 3.244874712153294344e-02
1.928003899169922875e+00 3.195743119144177358e-02
1.942627922363278969e+00 3.147769053006278794e-02
1.957251945556642170e+00 3.100915960841928512e-02
1.971875968749998265e+00 3.055148728098465785e-02
1.986499991943361465e+00 3.010433571981820100e-02
2.001124015136717560e+00 2.966737988634144188e-02
2.015748038330073655e+00 2.924030753258554521e-02
2.030372061523436855e+00 2.882281801922032330e-02
2.044996084716792950e+00 2.841462145685184904e-02
2.059620107910156150e+00 2.801543941160872242e-02
2.074244131103512245e+00 2.762500369862684949e-02
2.088868154296875446e+00 2.724305522990926390e-02
2.103492177490231541e+00 2.686934509402010007e-02
2.118116200683594741e+00 2.650363355152699288e-02
2.132740223876950836e+00 2.614568868164574011e-02
2.147364247070314036e+00 2.579528718130370477e-02
2.161988270263670131e+00 2.545221402640038613e-02
2.176612293457033331e+00 2.511626118346266603e-02
2.191236316650389426e+00 2.478722789863036999e-02
2.205860339843745521e+00 2.446492103893038034e-02
2.220484363037108722e+00 2.414915371165734376e-02
2.235108386230464816e+00 2.383974494424737772e-02
2.249732409423828017e+00 2.353652085158525198e-02
2.264356432617184112e+00 2.323931323113689190e-02
2.278980455810547312e+00 2.294795858668474339e-02
2.293604479003903407e+00 2.266229994936526382e-02
2.308228502197266607e+00 2.238218560182776706e-02
2.322852525390622702e+00 2.210746774697015110e-02
2.337476548583985902e+00 2.183800431068004186e-02
2.352100571777341997e+00 2.157365815191921929e-02
2.366724594970705198e+00 2.131429563283438258e-02
2.381348618164061293e+00 2.105978773815595645e-02
2.395972641357417388e+00 2.081001011129087613e-02
2.410596664550780588e+00 2.056484171080729187e-02
2.425220687744136683e+00 2.032416518758762419e-02
2.439844710937499883e+00 2.008786769138546507e-02
2.454468734130855978e+00 1.985583948978854665e-02
2.469092757324219178e+00 1.962797359421771318e-02
2.483716780517575273e+00 1.940416743695455928e-02
2.498340803710938474e+00 1.918432144565839284e-02
2.512964826904294569e+00 1.896833796438215924e-02
2.527588850097657769e+00 1.875612325831628457e-02
2.542212873291013864e+00 1.854758651579771142e-02
2.556836896484377064e+00 1.834263868776643547e-02
2.571460919677733159e+00 1.814119420921249046e-02
2.586084942871089254e+00 1.794317044524347537e-02
2.600708966064452454e+00 1.774848627739781040e-02
2.615332989257808549e+00 1.755706311072110365e-02
2.629957012451171749e+00 1.736882519064077146e-02
2.644581035644527844e+00 1.718369842921895277e-02
2.659205058837891045e+00 1.700161062961050989e-02
2.673829082031247140e+00 1.682249242283011259e-02
2.688453105224610340e+00 1.664627612466380857e-02
2.703077128417966435e+00 1.647289530168586855e-02
2.717701151611329635e+00 1.630228646118275782e-02
2.732325174804685730e+00 1.613438781693105062e-02
2.746949197998048930e+00 1.596913824881552452e-02
2.761573221191405025e+00 1.580647925307783822e-02
2.776197244384761120e+00 1.564635409408121625e-02
2.790821267578124321e+00 1.548870668432024769e-02
2.805445290771480416e+00 1.533348297228969738e-02
2.820069313964843616e+00 1.518063072214325716e-02
2.834693337158199711e+00 1.503009847234724507e-02
2.849317360351562911e+00 1.488183626291826080e-02
2.863941383544919006e+00 1.473579604025640304e-02
2.878565406738282206e+00 1.459193058584933901e-02
2.893189429931638301e+00 1.445019361950827808e-02
2.907813453125001502e+00 1.431054088445414367e-02
2.922437476318357596e+00 1.417292904850232446e-02
2.937061499511720797e+00 1.403731514023886726e-02
2.951685522705076892e+00 1.390365821533138917e-02
2.966309545898432987e+00 1.377191837477074153e-02
2.980933569091796187e+00 1.364205584647805967e-02
2.995557592285152282e+00 1.351403262193736667e-02
3.010181615478515482e+00 1.338781183664397925e-02
3.024805638671871577e+00 1.326335682681785248e-02
3.039429661865234777e+00 1.314063230951065600e-02
3.054053685058590872e+00 1.301960429682827783e-02
3.068677708251954073e+00 1.290023903890390698e-02
3.083301731445310168e+00 1.278250357681605040e-02
3.097925754638673368e+00 1.266636630295292151e-02
3.112549777832029463e+00 1.255179604806591284e-02
3.127173801025392663e+00 1.243876204375647491e-02
3.141797824218748758e+00 1.232723497959616402e-02
3.156421847412104853e+00 1.221718610500056347e-02
3.171045870605468053e+00 1.210858666964049341e-02
3.185669893798824148e+00 1.200140951898924675e-02
3.200293916992187349e+00 1.189562818086689275e-02
3.214917940185543443e+00 1.179121592295556860e-02
3.229541963378906644e+00 1.168814729455578370e-02
3.244165986572262739e+00 1.158639765636086325e-02
3.258790009765625939e+00 1.148594229012236435e-02
3.273414032958982034e+00 1.138675731488486900e-02
3.288038056152345234e+00 1.128881977441325950e-02
3.302662079345701329e+00 1.119210679662021625e-02
3.317286102539064530e+00 1.109659597328967878e-02
3.331910125732420624e+00 1.100226596391344278e-02
3.346534148925776719e+00 1.090909563280524977e-02
3.361158172119139920e+00 1.081706390288723896e-02
3.375782195312496015e+00 1.072615092016175609e-02
3.390406218505859215e+00 1.063633716976898451e-02
3.405030241699215310e+00 1.054760284328296396e-02
3.419654264892578510e+00 1.045992930013259561e-02
3.434278288085934605e+00 1.037329837971523450e-02
3.448902311279297805e+00 1.028769161226633123e-02
3.463526334472653900e+00 1.020309143214305839e-02
3.478150357666017101e+00 1.011948088185817343e-02
3.492774380859373196e+00 1.003684283425803833e-02
3.507398404052736396e+00 9.955173787726728785e-03
3.522022427246092491e+00 9.874483343224662105e-03
3.536646450439448586e+00 9.794767504380925277e-03
3.551270473632811786e+00 9.716009414648642956e-03
3.565894496826167881e+00 9.638192862967784325e-03
3.580518520019531081e+00 9.561301982050013706e-03
3.595142543212887176e+00 9.485320962389407959e-03
3.609766566406250377e+00 9.410234492741876774e-03
3.624390589599606471e+00 9.336027729624798294e-03
3.639014612792969672e+00 9.262685982373735846e-03
3.653638635986325767e+00 9.190194740067046328e-03
3.668262659179688967e+00 9.118540102547496168e-03
3.682886682373045062e+00 9.047708447986482772e-03
3.697510705566408262e+00 8.977686132167513391e-03
3.712134728759764357e+00 8.908459977777246838e-03
3.726758751953120452e+00 8.840017228486804490e-03
3.741382775146483652e+00 8.772345206950108928e-03
3.756006798339839747e+00 8.705431368939158324e-03
3.770630821533202948e+00 8.639263749257986708e-03
3.785254844726559043e+00 8.573830605239947736e-03
3.799878867919922243e+00 8.509120109861366757e-03
3.814502891113278338e+00 8.445120879221624730e-03
3.829126914306641538e+00 8.381821909336343440e-03
3.843750937499997633e+00 8.319212212980596141e-03
3.858374960693360833e+00 8.257280902967402761e-03
3.872998983886716928e+00 8.196017641994537278e-03
3.887623007080080129e+00 8.135412267287643259e-03
3.902247030273436224e+00 8.075454484012103973e-03
3.916871053466792318e+00 8.016134422713183313e-03
3.931495076660155519e+00 7.957442557547114714e-03
3.946119099853511614e+00 7.899369326469132813e-03
3.960743123046874814e+00 7.841905244905595512e-03
3.975367146240230909e+00 7.785041351410273633e-03
3.989991169433594109e+00 7.728768817388217451e-03
4.004615192626950204e+00 7.673078645571564799e-03
4.019239215820313404e+00 7.617962251195047226e-03
4.033863239013669499e+00 7.563411360791741020e-03
4.048487262207032700e+00 7.509417619141497621e-03
4.063111285400388795e+00 7.455972734115856593e-03
4.077735308593751995e+00 7.403068911958195220e-03
4.092359331787108090e+00 7.350698455263425177e-03
4.106983354980464185e+00 7.298853470193173570e-03
4.121607378173827385e+00 7.247526466312026981e-03
4.136231401367183480e+00 7.196710235425839673e-03
4.150855424560546680e+00 7.146397448166765497e-03
4.165479447753902775e+00 7.096580830418603575e-03
4.180103470947265976e+00 7.047253583533105367e-03
4.194727494140622071e+00 6.998408972946320965e-03
4.209351517333985271e+00 6.950040046835601580e-03
4.223975540527341366e+00 6.902140251001607704e-03
4.238599563720704566e+00 6.854703287301585485e-03
4.253223586914060661e+00 6.807722701713039663e-03
4.267847610107423861e+00 6.761192092730444921e-03
4.282471633300779956e+00 6.715105513362656063e-03
4.297095656494136051e+00 6.669457051843027430e-03
4.311719679687499251e+00 6.624240563516366372e-03
4.326343702880855346e+00 6.579450298529678116e-03
4.340967726074218547e+00 6.535080739402406025e-03
4.355591749267574642e+00 6.491126181658689667e-03
4.370215772460937842e+00 6.447580974682452434e-03
4.384839795654293937e+00 6.404439903374183236e-03
4.399463818847657137e+00 6.361697761712422662e-03
4.414087842041013232e+00 6.319349099042704740e-03
4.428711865234376432e+00 6.277388859445232061e-03
4.443335888427732527e+00 6.235812197870370562e-03
4.457959911621095728e+00 6.194614053768528021e-03
4.472583934814451823e+00 6.153789425250646983e-03
4.487207958007815023e+00 6.113333729361276545e-03
4.501831981201171118e+00 6.073242368044145037e-03
4.516456004394527213e+00 6.033510489238430759e-03
4.531080027587890413e+00 5.994132982203768945e-03
4.545704050781246508e+00 5.955104697572888468e-03
4.560328073974609708e+00 5.916420914188504770e-03
4.574952097167965803e+00 5.878077644801557415e-03
4.589576120361329004e+00 5.840072620412292692e-03
4.604200143554685098e+00 5.802403082232216944e-03
4.618824166748048299e+00 5.765064667584879170e-03
4.633448189941404394e+00 5.728052756601538335e-03
4.648072213134767594e+00 5.691362698245877073e-03
4.662696236328123689e+00 5.654990248001369804e-03
4.677320259521486889e+00 5.618931454994010970e-03
4.691944282714842984e+00 5.583182754916274360e-03
4.706568305908199079e+00 5.547740526020322575e-03
4.721192329101562279e+00 5.512600884294093992e-03
4.735816352294918374e+00 5.477760312278211891e-03
4.750440375488281575e+00 5.443215437193721709e-03
4.765064398681637670e+00 5.408962637668300773e-03
4.779688421875000870e+00 5.374998371371475861e-03
4.794312445068356965e+00 5.341319420620256261e-03
4.808936468261720165e+00 5.307922511349140622e-03
4.823560491455076260e+00 5.274804154232617254e-03
4.838184514648439460e+00 5.241961203841610968e-03
4.852808537841795555e+00 5.209390637558262635e-03
4.867432561035158756e+00 5.177089192380605540e-03
4.882056584228514851e+00 5.145053695990099013e-03
4.896680607421870945e+00 5.113281275138603643e-03
4.911304630615234146e+00 5.081768989725152057e-03
4.925928653808590241e+00 5.050513696517506396e-03
4.940552677001953441e+00 5.019512586178796754e-03
4.955176700195309536e+00 4.988762955315364025e-03
4.969800723388672736e+00 4.958261857546922627e-03
4.984424746582028831e+00 4.928006436207707508e-03
4.999048769775392032e+00 4.897994092356076912e-03
5.013672792968748126e+00 4.868222160485796701e-03
5.028296816162111327e+00 4.838687802164088128e-03
5.042920839355467422e+00 4.809388481307075303e-03
5.057544862548830622e+00 4.780321748680302352e-03
5.072168885742186717e+00 4.751484933150756582e-03
5.086792908935542812e+00 4.722875460349322541e-03
5.101416932128906012e+00 4.694490984927409544e-03
5.116040955322262107e+00 4.666329092096739399e-03
5.130664978515625307e+00 4.638387213027560761e-03
5.145289001708981402e+00 4.610663083761991354e-03
5.159913024902344603e+00 4.583154515560699041e-03
5.174537048095700698e+00 4.555859085652650547e-03
5.189161071289063898e+00 4.528774468022508069e-03
5.203785094482419993e+00 4.501898540008148278e-03
5.218409117675783193e+00 4.475229107697330060e-03
5.233033140869139288e+00 4.448763840321002562e-03
5.247657164062502488e+00 4.422500671938753986e-03
5.262281187255858583e+00 4.396437595970729799e-03
5.276905210449214678e+00 4.370572404248851926e-03
5.291529233642577879e+00 4.344902756384242878e-03
5.306153256835933973e+00 4.319426143246387316e-03
5.320777280029297174e+00 4.294140227162395775e-03
5.335401303222653269e+00 4.269042907018595449e-03
5.350025326416016469e+00 4.244133374187435137e-03
5.364649349609372564e+00 4.219410956314520456e-03
5.379273372802735764e+00 4.194873727331692274e-03
5.393897395996091859e+00 4.170519530621786229e-03
5.408521419189455059e+00 4.146346059133667120e-03
5.423145442382811154e+00 4.122351171018756241e-03
5.437769465576174355e+00 4.098532935953642063e-03
5.452393488769530450e+00 4.074889653158292151e-03
5.467017511962886545e+00 4.051419660385512447e-03
5.481641535156249745e+00 4.028121116104431583e-03
5.496265558349605840e+00 4.004992278367266491e-03
5.510889581542969040e+00 3.982031540272406266e-03
5.525513604736325135e+00 3.959237228332810991e-03
5.540137627929688335e+00 3.936607581252003947e-03
5.554761651123044430e+00 3.914141066064435494e-03
5.569385674316407631e+00 3.891836180556611843e-03
5.584009697509763726e+00 3.869691238911007920e-03
5.598633720703126926e+00 3.847704657917815248e-03
5.613257743896483021e+00 3.825874977966926566e-03
5.627881767089846221e+00 3.804200669739075599e-03
5.642505790283202316e+00 3.782680122498819318e-03
5.657129813476558411e+00 3.761311924377047818e-03
5.671753836669921611e+00 3.740094686696916141e-03
5.686377859863277706e+00 3.719026862226134083e-03
5.701001883056640906e+00 3.698107003965670197e-03
5.715625906249997001e+00 3.677333771671635089e-03
5.730249929443360202e+00 3.656705759024059862e-03
5.744873952636716297e+00 3.636221490866756775e-03
5.759497975830079497e+00 3.615879672368811030e-03
5.774121999023435592e+00 3.595679025918665280e-03
5.788746022216798792e+00 3.575618129863410849e-03
5.803370045410154887e+00 3.555695658025165382e-03
5.817994068603518087e+00 3.535910375070601495e-03
5.832618091796874182e+00 3.516260984668085135e-03
5.847242114990230277e+00 3.496746136751086378e-03
5.861866138183593478e+00 3.477364635626866828e-03
5.876490161376949573e+00 3.458115298041084754e-03
5.891114184570312773e+00 3.438996819130301936e-03
5.905738207763668868e+00 3.420007979472919953e-03
5.920362230957032068e+00 3.401147635128033263e-03
